x	S(x),tau=0(buckley)	S(x),tau=0.001	S(x),tau=0.01	S(x),tau=0.1	S(x),tau=1.0	S(x),tau=10.0	xi(x),tau=0.001	xi(x),tau=0.01	xi(x),tau=0.1	xi(x),tau=1.0	xi(x),tau=10.0	
0.0000	1.0000	1.0000	1.0000	1.0000	1.0000	1.0000	0.0000	0.0000	0.0000	0.0000	0.0000	
0.0050	0.9906	0.9902	0.9835	0.8805	0.7202	0.6892	0.0099	0.0178	0.2922	0.8754	0.9867	
0.0101	0.9802	0.9796	0.9657	0.7829	0.5638	0.5248	0.0205	0.0371	0.4025	0.9048	0.9900	
0.0151	0.9696	0.9688	0.9492	0.7491	0.5337	0.5025	0.0314	0.0544	0.4327	0.9107	0.9906	
0.0201	0.9595	0.9582	0.9348	0.7271	0.5241	0.4971	0.0420	0.0695	0.4529	0.9135	0.9908	
0.0251	0.9500	0.9483	0.9218	0.7099	0.5175	0.4934	0.0520	0.0831	0.4690	0.9157	0.9911	
0.0302	0.9409	0.9389	0.9098	0.6954	0.5120	0.4901	0.0614	0.0956	0.4827	0.9177	0.9913	
0.0352	0.9323	0.9299	0.8986	0.6828	0.5073	0.4870	0.0704	0.1073	0.4948	0.9194	0.9914	
0.0402	0.9240	0.9213	0.8880	0.6714	0.5031	0.4841	0.0791	0.1183	0.5059	0.9211	0.9916	
0.0452	0.9161	0.9131	0.8780	0.6609	0.4992	0.4814	0.0873	0.1288	0.5161	0.9226	0.9918	
0.0503	0.9085	0.9051	0.8684	0.6512	0.4956	0.4788	0.0953	0.1387	0.5257	0.9241	0.9919	
0.0553	0.9011	0.8974	0.8592	0.6421	0.4922	0.4762	0.1030	0.1483	0.5348	0.9255	0.9921	
0.0603	0.8940	0.8900	0.8504	0.6335	0.4889	0.4737	0.1105	0.1575	0.5434	0.9269	0.9922	
0.0653	0.8871	0.8828	0.8419	0.6253	0.4858	0.4714	0.1178	0.1664	0.5517	0.9282	0.9924	
0.0704	0.8804	0.8757	0.8336	0.6175	0.4828	0.4690	0.1248	0.1750	0.5597	0.9295	0.9925	
0.0754	0.8739	0.8689	0.8255	0.6100	0.4799	0.4668	0.1317	0.1835	0.5674	0.9308	0.9926	
0.0804	0.8676	0.8622	0.8176	0.6028	0.4771	0.4645	0.1384	0.1917	0.5749	0.9320	0.9928	
0.0854	0.8614	0.8557	0.8099	0.5959	0.4744	0.4624	0.1449	0.1998	0.5822	0.9332	0.9929	
0.0905	0.8553	0.8493	0.8024	0.5891	0.4718	0.4603	0.1514	0.2077	0.5893	0.9343	0.9930	
0.0955	0.8494	0.8430	0.7949	0.5825	0.4692	0.4582	0.1577	0.2156	0.5962	0.9355	0.9931	
0.1005	0.8436	0.8368	0.7876	0.5761	0.4667	0.4562	0.1639	0.2234	0.6030	0.9366	0.9933	
0.1055	0.8379	0.8308	0.7803	0.5699	0.4642	0.4542	0.1700	0.2311	0.6097	0.9377	0.9934	
0.1106	0.8323	0.8248	0.7731	0.5638	0.4618	0.4523	0.1760	0.2387	0.6163	0.9388	0.9935	
0.1156	0.8268	0.8189	0.7659	0.5578	0.4594	0.4504	0.1819	0.2464	0.6227	0.9398	0.9936	
0.1206	0.8214	0.8130	0.7587	0.5519	0.4571	0.4485	0.1878	0.2541	0.6291	0.9409	0.9937	
0.1256	0.8161	0.8072	0.7515	0.5462	0.4548	0.4466	0.1936	0.2618	0.6354	0.9419	0.9938	
0.1307	0.8108	0.8015	0.7443	0.5405	0.4526	0.4448	0.1994	0.2696	0.6415	0.9430	0.9939	
0.1357	0.8057	0.7958	0.7371	0.5350	0.4504	0.4430	0.2051	0.2774	0.6477	0.9440	0.9941	
0.1407	0.8005	0.7901	0.7298	0.5295	0.4482	0.4413	0.2108	0.2853	0.6537	0.9450	0.9942	
0.1457	0.7955	0.7844	0.7225	0.5241	0.4461	0.4395	0.2166	0.2934	0.6597	0.9459	0.9943	
0.1508	0.7904	0.7787	0.7150	0.5187	0.4440	0.4378	0.2223	0.3016	0.6657	0.9469	0.9944	
0.1558	0.7854	0.7730	0.7074	0.5135	0.4419	0.4361	0.2280	0.3100	0.6716	0.9479	0.9945	
0.1608	0.7805	0.7673	0.6997	0.5082	0.4399	0.4345	0.2338	0.3187	0.6774	0.9488	0.9946	
0.1658	0.7755	0.7615	0.6918	0.5031	0.4379	0.4328	0.2396	0.3276	0.6833	0.9498	0.9947	
0.1709	0.7706	0.7557	0.6837	0.4980	0.4359	0.4312	0.2455	0.3368	0.6890	0.9507	0.9948	
0.1759	0.7657	0.7498	0.6754	0.4929	0.4339	0.4296	0.2515	0.3464	0.6948	0.9517	0.9949	
0.1809	0.7608	0.7437	0.6668	0.4879	0.4319	0.4280	0.2576	0.3564	0.7005	0.9526	0.9950	
0.1859	0.7559	0.7375	0.6579	0.4829	0.4300	0.4265	0.2640	0.3668	0.7062	0.9535	0.9951	
0.1910	0.7510	0.7309	0.6486	0.4780	0.4281	0.4249	0.2706	0.3778	0.7119	0.9544	0.9952	
0.1960	0.7460	0.7241	0.6389	0.4731	0.4262	0.4234	0.2776	0.3894	0.7175	0.9553	0.9953	
0.2010	0.7410	0.7167	0.6287	0.4682	0.4244	0.4219	0.2852	0.4017	0.7231	0.9562	0.9954	
0.2060	0.7359	0.7087	0.6179	0.4633	0.4225	0.4204	0.2935	0.4148	0.7287	0.9571	0.9955	
0.2111	0.7306	0.6997	0.6066	0.4585	0.4207	0.4189	0.3028	0.4288	0.7343	0.9580	0.9956	
0.2161	0.7249	0.6893	0.5945	0.4537	0.4189	0.4174	0.3138	0.4438	0.7399	0.9588	0.9956	
0.2211	0.7186	0.6768	0.5817	0.4489	0.4171	0.4160	0.3270	0.4600	0.7455	0.9597	0.9957	
0.2261	0.7107	0.6612	0.5679	0.4442	0.4153	0.4145	0.3437	0.4775	0.7510	0.9606	0.9958	
0.2312	0.6990	0.6407	0.5532	0.4394	0.4135	0.4131	0.3662	0.4966	0.7566	0.9614	0.9959	
0.2362	0.6745	0.6121	0.5372	0.4347	0.4118	0.4117	0.3980	0.5173	0.7622	0.9623	0.9960	
0.2412	0.5716	0.5695	0.5200	0.4300	0.4100	0.4103	0.4463	0.5400	0.7677	0.9631	0.9961	
0.2462	0.1888	0.5022	0.5012	0.4253	0.4083	0.4089	0.5252	0.5649	0.7732	0.9639	0.9962	
0.2513	0.0006	0.3937	0.4807	0.4206	0.4066	0.4075	0.6537	0.5924	0.7788	0.9648	0.9963	
0.2563	0.0000	0.1553	0.4582	0.4159	0.4049	0.4061	0.9077	0.6226	0.7843	0.9656	0.9964	
0.2613	0.0000	0.0025	0.4335	0.4113	0.4032	0.4048	0.9990	0.6560	0.7899	0.9664	0.9965	
0.2663	0.0000	0.0000	0.4062	0.4066	0.4016	0.4034	1.0000	0.6930	0.7955	0.9673	0.9965	
0.2714	0.0000	0.0000	0.3759	0.4019	0.3999	0.4021	1.0000	0.7340	0.8010	0.9681	0.9966	
0.2764	0.0000	0.0000	0.3423	0.3973	0.3983	0.4008	1.0000	0.7794	0.8066	0.9689	0.9967	
0.2814	0.0000	0.0000	0.3047	0.3926	0.3966	0.3994	1.0000	0.8295	0.8122	0.9697	0.9968	
0.2864	0.0000	0.0000	0.2628	0.3879	0.3950	0.3981	1.0000	0.8846	0.8178	0.9705	0.9969	
0.2915	0.0000	0.0000	0.2086	0.3833	0.3934	0.3968	1.0000	0.9446	0.8234	0.9713	0.9970	
0.2965	0.0000	0.0000	0.0756	0.3786	0.3918	0.3955	1.0000	0.9919	0.8290	0.9721	0.9971	
0.3015	0.0000	0.0000	0.0012	0.3739	0.3902	0.3942	1.0000	0.9999	0.8346	0.9729	0.9971	
0.3065	0.0000	0.0000	0.0000	0.3693	0.3886	0.3929	1.0000	1.0000	0.8402	0.9737	0.9972	
0.3116	0.0000	0.0000	0.0000	0.3646	0.3870	0.3916	1.0000	1.0000	0.8459	0.9745	0.9973	
0.3166	0.0000	0.0000	0.0000	0.3599	0.3854	0.3904	1.0000	1.0000	0.8516	0.9753	0.9974	
0.3216	0.0000	0.0000	0.0000	0.3552	0.3838	0.3891	1.0000	1.0000	0.8572	0.9760	0.9975	
0.3266	0.0000	0.0000	0.0000	0.3505	0.3823	0.3878	1.0000	1.0000	0.8629	0.9768	0.9976	
0.3317	0.0000	0.0000	0.0000	0.3458	0.3807	0.3866	1.0000	1.0000	0.8687	0.9776	0.9976	
0.3367	0.0000	0.0000	0.0000	0.3410	0.3792	0.3853	1.0000	1.0000	0.8744	0.9784	0.9977	
0.3417	0.0000	0.0000	0.0000	0.3363	0.3776	0.3841	1.0000	1.0000	0.8802	0.9791	0.9978	
0.3467	0.0000	0.0000	0.0000	0.3315	0.3761	0.3828	1.0000	1.0000	0.8859	0.9799	0.9979	
0.3518	0.0000	0.0000	0.0000	0.3267	0.3746	0.3816	1.0000	1.0000	0.8917	0.9807	0.9980	
0.3568	0.0000	0.0000	0.0000	0.3219	0.3731	0.3803	1.0000	1.0000	0.8976	0.9814	0.9980	
0.3618	0.0000	0.0000	0.0000	0.3171	0.3715	0.3791	1.0000	1.0000	0.9034	0.9822	0.9981	
0.3668	0.0000	0.0000	0.0000	0.3123	0.3700	0.3779	1.0000	1.0000	0.9093	0.9829	0.9982	
0.3719	0.0000	0.0000	0.0000	0.3075	0.3685	0.3766	1.0000	1.0000	0.9152	0.9837	0.9983	
0.3769	0.0000	0.0000	0.0000	0.3026	0.3670	0.3754	1.0000	1.0000	0.9211	0.9844	0.9984	
0.3819	0.0000	0.0000	0.0000	0.2977	0.3655	0.3741	1.0000	1.0000	0.9270	0.9852	0.9984	
0.3869	0.0000	0.0000	0.0000	0.2928	0.3640	0.3729	1.0000	1.0000	0.9330	0.9859	0.9985	
0.3920	0.0000	0.0000	0.0000	0.2879	0.3625	0.3717	1.0000	1.0000	0.9390	0.9867	0.9986	
0.3970	0.0000	0.0000	0.0000	0.2829	0.3610	0.3704	1.0000	1.0000	0.9450	0.9874	0.9987	
0.4020	0.0000	0.0000	0.0000	0.2779	0.3595	0.3692	1.0000	1.0000	0.9511	0.9881	0.9987	
0.4070	0.0000	0.0000	0.0000	0.2729	0.3580	0.3679	1.0000	1.0000	0.9571	0.9889	0.9988	
0.4121	0.0000	0.0000	0.0000	0.2678	0.3565	0.3667	1.0000	1.0000	0.9633	0.9896	0.9989	
0.4171	0.0000	0.0000	0.0000	0.2628	0.3550	0.3654	1.0000	1.0000	0.9694	0.9903	0.9990	
0.4221	0.0000	0.0000	0.0000	0.2577	0.3535	0.3641	1.0000	1.0000	0.9756	0.9911	0.9991	
0.4271	0.0000	0.0000	0.0000	0.2525	0.3520	0.3628	1.0000	1.0000	0.9817	0.9918	0.9991	
0.4322	0.0000	0.0000	0.0000	0.2467	0.3505	0.3614	1.0000	1.0000	0.9880	0.9925	0.9992	
0.4372	0.0000	0.0000	0.0000	0.2266	0.3490	0.3600	1.0000	1.0000	0.9941	0.9932	0.9993	
0.4422	0.0000	0.0000	0.0000	0.1189	0.3475	0.3586	1.0000	1.0000	0.9988	0.9939	0.9994	
0.4472	0.0000	0.0000	0.0000	0.0031	0.3459	0.3570	1.0000	1.0000	1.0000	0.9947	0.9994	
0.4523	0.0000	0.0000	0.0000	0.0000	0.3443	0.3553	1.0000	1.0000	1.0000	0.9954	0.9995	
0.4573	0.0000	0.0000	0.0000	0.0000	0.3426	0.3534	1.0000	1.0000	1.0000	0.9961	0.9996	
0.4623	0.0000	0.0000	0.0000	0.0000	0.3406	0.3510	1.0000	1.0000	1.0000	0.9968	0.9996	
0.4673	0.0000	0.0000	0.0000	0.0000	0.3379	0.3478	1.0000	1.0000	1.0000	0.9975	0.9997	
0.4724	0.0000	0.0000	0.0000	0.0000	0.3331	0.3426	1.0000	1.0000	1.0000	0.9982	0.9998	
0.4774	0.0000	0.0000	0.0000	0.0000	0.3214	0.3325	1.0000	1.0000	1.0000	0.9989	0.9999	
0.4824	0.0000	0.0000	0.0000	0.0000	0.2751	0.3037	1.0000	1.0000	1.0000	0.9995	0.9999	
0.4874	0.0000	0.0000	0.0000	0.0000	0.1080	0.1829	1.0000	1.0000	1.0000	0.9999	1.0000	
0.4925	0.0000	0.0000	0.0000	0.0000	0.0015	0.0089	1.0000	1.0000	1.0000	1.0000	1.0000	
0.4975	0.0000	0.0000	0.0000	0.0000	0.0000	0.0000	1.0000	1.0000	1.0000	1.0000	1.0000	
0.5025	0.0000	0.0000	0.0000	0.0000	0.0000	0.0000	1.0000	1.0000	1.0000	1.0000	1.0000	
0.5075	0.0000	0.0000	0.0000	0.0000	0.0000	0.0000	1.0000	1.0000	1.0000	1.0000	1.0000	
0.5126	0.0000	0.0000	0.0000	0.0000	0.0000	0.0000	1.0000	1.0000	1.0000	1.0000	1.0000	
0.5176	0.0000	0.0000	0.0000	0.0000	0.0000	0.0000	1.0000	1.0000	1.0000	1.0000	1.0000	
0.5226	0.0000	0.0000	0.0000	0.0000	0.0000	0.0000	1.0000	1.0000	1.0000	1.0000	1.0000	
0.5276	0.0000	0.0000	0.0000	0.0000	0.0000	0.0000	1.0000	1.0000	1.0000	1.0000	1.0000	
0.5327	0.0000	0.0000	0.0000	0.0000	0.0000	0.0000	1.0000	1.0000	1.0000	1.0000	1.0000	
0.5377	0.0000	0.0000	0.0000	0.0000	0.0000	0.0000	1.0000	1.0000	1.0000	1.0000	1.0000	
0.5427	0.0000	0.0000	0.0000	0.0000	0.0000	0.0000	1.0000	1.0000	1.0000	1.0000	1.0000	
0.5477	0.0000	0.0000	0.0000	0.0000	0.0000	0.0000	1.0000	1.0000	1.0000	1.0000	1.0000	
0.5528	0.0000	0.0000	0.0000	0.0000	0.0000	0.0000	1.0000	1.0000	1.0000	1.0000	1.0000	
0.5578	0.0000	0.0000	0.0000	0.0000	0.0000	0.0000	1.0000	1.0000	1.0000	1.0000	1.0000	
0.5628	0.0000	0.0000	0.0000	0.0000	0.0000	0.0000	1.0000	1.0000	1.0000	1.0000	1.0000	
0.5678	0.0000	0.0000	0.0000	0.0000	0.0000	0.0000	1.0000	1.0000	1.0000	1.0000	1.0000	
0.5729	0.0000	0.0000	0.0000	0.0000	0.0000	0.0000	1.0000	1.0000	1.0000	1.0000	1.0000	
0.5779	0.0000	0.0000	0.0000	0.0000	0.0000	0.0000	1.0000	1.0000	1.0000	1.0000	1.0000	
0.5829	0.0000	0.0000	0.0000	0.0000	0.0000	0.0000	1.0000	1.0000	1.0000	1.0000	1.0000	
0.5879	0.0000	0.0000	0.0000	0.0000	0.0000	0.0000	1.0000	1.0000	1.0000	1.0000	1.0000	
0.5930	0.0000	0.0000	0.0000	0.0000	0.0000	0.0000	1.0000	1.0000	1.0000	1.0000	1.0000	
0.5980	0.0000	0.0000	0.0000	0.0000	0.0000	0.0000	1.0000	1.0000	1.0000	1.0000	1.0000	
0.6030	0.0000	0.0000	0.0000	0.0000	0.0000	0.0000	1.0000	1.0000	1.0000	1.0000	1.0000	
0.6080	0.0000	0.0000	0.0000	0.0000	0.0000	0.0000	1.0000	1.0000	1.0000	1.0000	1.0000	
0.6131	0.0000	0.0000	0.0000	0.0000	0.0000	0.0000	1.0000	1.0000	1.0000	1.0000	1.0000	
0.6181	0.0000	0.0000	0.0000	0.0000	0.0000	0.0000	1.0000	1.0000	1.0000	1.0000	1.0000	
0.6231	0.0000	0.0000	0.0000	0.0000	0.0000	0.0000	1.0000	1.0000	1.0000	1.0000	1.0000	
0.6281	0.0000	0.0000	0.0000	0.0000	0.0000	0.0000	1.0000	1.0000	1.0000	1.0000	1.0000	
0.6332	0.0000	0.0000	0.0000	0.0000	0.0000	0.0000	1.0000	1.0000	1.0000	1.0000	1.0000	
0.6382	0.0000	0.0000	0.0000	0.0000	0.0000	0.0000	1.0000	1.0000	1.0000	1.0000	1.0000	
0.6432	0.0000	0.0000	0.0000	0.0000	0.0000	0.0000	1.0000	1.0000	1.0000	1.0000	1.0000	
0.6482	0.0000	0.0000	0.0000	0.0000	0.0000	0.0000	1.0000	1.0000	1.0000	1.0000	1.0000	
0.6533	0.0000	0.0000	0.0000	0.0000	0.0000	0.0000	1.0000	1.0000	1.0000	1.0000	1.0000	
0.6583	0.0000	0.0000	0.0000	0.0000	0.0000	0.0000	1.0000	1.0000	1.0000	1.0000	1.0000	
0.6633	0.0000	0.0000	0.0000	0.0000	0.0000	0.0000	1.0000	1.0000	1.0000	1.0000	1.0000	
0.6683	0.0000	0.0000	0.0000	0.0000	0.0000	0.0000	1.0000	1.0000	1.0000	1.0000	1.0000	
0.6734	0.0000	0.0000	0.0000	0.0000	0.0000	0.0000	1.0000	1.0000	1.0000	1.0000	1.0000	
0.6784	0.0000	0.0000	0.0000	0.0000	0.0000	0.0000	1.0000	1.0000	1.0000	1.0000	1.0000	
0.6834	0.0000	0.0000	0.0000	0.0000	0.0000	0.0000	1.0000	1.0000	1.0000	1.0000	1.0000	
0.6884	0.0000	0.0000	0.0000	0.0000	0.0000	0.0000	1.0000	1.0000	1.0000	1.0000	1.0000	
0.6935	0.0000	0.0000	0.0000	0.0000	0.0000	0.0000	1.0000	1.0000	1.0000	1.0000	1.0000	
0.6985	0.0000	0.0000	0.0000	0.0000	0.0000	0.0000	1.0000	1.0000	1.0000	1.0000	1.0000	
0.7035	0.0000	0.0000	0.0000	0.0000	0.0000	0.0000	1.0000	1.0000	1.0000	1.0000	1.0000	
0.7085	0.0000	0.0000	0.0000	0.0000	0.0000	0.0000	1.0000	1.0000	1.0000	1.0000	1.0000	
0.7136	0.0000	0.0000	0.0000	0.0000	0.0000	0.0000	1.0000	1.0000	1.0000	1.0000	1.0000	
0.7186	0.0000	0.0000	0.0000	0.0000	0.0000	0.0000	1.0000	1.0000	1.0000	1.0000	1.0000	
0.7236	0.0000	0.0000	0.0000	0.0000	0.0000	0.0000	1.0000	1.0000	1.0000	1.0000	1.0000	
0.7286	0.0000	0.0000	0.0000	0.0000	0.0000	0.0000	1.0000	1.0000	1.0000	1.0000	1.0000	
0.7337	0.0000	0.0000	0.0000	0.0000	0.0000	0.0000	1.0000	1.0000	1.0000	1.0000	1.0000	
0.7387	0.0000	0.0000	0.0000	0.0000	0.0000	0.0000	1.0000	1.0000	1.0000	1.0000	1.0000	
0.7437	0.0000	0.0000	0.0000	0.0000	0.0000	0.0000	1.0000	1.0000	1.0000	1.0000	1.0000	
0.7487	0.0000	0.0000	0.0000	0.0000	0.0000	0.0000	1.0000	1.0000	1.0000	1.0000	1.0000	
0.7538	0.0000	0.0000	0.0000	0.0000	0.0000	0.0000	1.0000	1.0000	1.0000	1.0000	1.0000	
0.7588	0.0000	0.0000	0.0000	0.0000	0.0000	0.0000	1.0000	1.0000	1.0000	1.0000	1.0000	
0.7638	0.0000	0.0000	0.0000	0.0000	0.0000	0.0000	1.0000	1.0000	1.0000	1.0000	1.0000	
0.7688	0.0000	0.0000	0.0000	0.0000	0.0000	0.0000	1.0000	1.0000	1.0000	1.0000	1.0000	
0.7739	0.0000	0.0000	0.0000	0.0000	0.0000	0.0000	1.0000	1.0000	1.0000	1.0000	1.0000	
0.7789	0.0000	0.0000	0.0000	0.0000	0.0000	0.0000	1.0000	1.0000	1.0000	1.0000	1.0000	
0.7839	0.0000	0.0000	0.0000	0.0000	0.0000	0.0000	1.0000	1.0000	1.0000	1.0000	1.0000	
0.7889	0.0000	0.0000	0.0000	0.0000	0.0000	0.0000	1.0000	1.0000	1.0000	1.0000	1.0000	
0.7940	0.0000	0.0000	0.0000	0.0000	0.0000	0.0000	1.0000	1.0000	1.0000	1.0000	1.0000	
0.7990	0.0000	0.0000	0.0000	0.0000	0.0000	0.0000	1.0000	1.0000	1.0000	1.0000	1.0000	
0.8040	0.0000	0.0000	0.0000	0.0000	0.0000	0.0000	1.0000	1.0000	1.0000	1.0000	1.0000	
0.8090	0.0000	0.0000	0.0000	0.0000	0.0000	0.0000	1.0000	1.0000	1.0000	1.0000	1.0000	
0.8141	0.0000	0.0000	0.0000	0.0000	0.0000	0.0000	1.0000	1.0000	1.0000	1.0000	1.0000	
0.8191	0.0000	0.0000	0.0000	0.0000	0.0000	0.0000	1.0000	1.0000	1.0000	1.0000	1.0000	
0.8241	0.0000	0.0000	0.0000	0.0000	0.0000	0.0000	1.0000	1.0000	1.0000	1.0000	1.0000	
0.8291	0.0000	0.0000	0.0000	0.0000	0.0000	0.0000	1.0000	1.0000	1.0000	1.0000	1.0000	
0.8342	0.0000	0.0000	0.0000	0.0000	0.0000	0.0000	1.0000	1.0000	1.0000	1.0000	1.0000	
0.8392	0.0000	0.0000	0.0000	0.0000	0.0000	0.0000	1.0000	1.0000	1.0000	1.0000	1.0000	
0.8442	0.0000	0.0000	0.0000	0.0000	0.0000	0.0000	1.0000	1.0000	1.0000	1.0000	1.0000	
0.8492	0.0000	0.0000	0.0000	0.0000	0.0000	0.0000	1.0000	1.0000	1.0000	1.0000	1.0000	
0.8543	0.0000	0.0000	0.0000	0.0000	0.0000	0.0000	1.0000	1.0000	1.0000	1.0000	1.0000	
0.8593	0.0000	0.0000	0.0000	0.0000	0.0000	0.0000	1.0000	1.0000	1.0000	1.0000	1.0000	
0.8643	0.0000	0.0000	0.0000	0.0000	0.0000	0.0000	1.0000	1.0000	1.0000	1.0000	1.0000	
0.8693	0.0000	0.0000	0.0000	0.0000	0.0000	0.0000	1.0000	1.0000	1.0000	1.0000	1.0000	
0.8744	0.0000	0.0000	0.0000	0.0000	0.0000	0.0000	1.0000	1.0000	1.0000	1.0000	1.0000	
0.8794	0.0000	0.0000	0.0000	0.0000	0.0000	0.0000	1.0000	1.0000	1.0000	1.0000	1.0000	
0.8844	0.0000	0.0000	0.0000	0.0000	0.0000	0.0000	1.0000	1.0000	1.0000	1.0000	1.0000	
0.8894	0.0000	0.0000	0.0000	0.0000	0.0000	0.0000	1.0000	1.0000	1.0000	1.0000	1.0000	
0.8945	0.0000	0.0000	0.0000	0.0000	0.0000	0.0000	1.0000	1.0000	1.0000	1.0000	1.0000	
0.8995	0.0000	0.0000	0.0000	0.0000	0.0000	0.0000	1.0000	1.0000	1.0000	1.0000	1.0000	
0.9045	0.0000	0.0000	0.0000	0.0000	0.0000	0.0000	1.0000	1.0000	1.0000	1.0000	1.0000	
0.9095	0.0000	0.0000	0.0000	0.0000	0.0000	0.0000	1.0000	1.0000	1.0000	1.0000	1.0000	
0.9146	0.0000	0.0000	0.0000	0.0000	0.0000	0.0000	1.0000	1.0000	1.0000	1.0000	1.0000	
0.9196	0.0000	0.0000	0.0000	0.0000	0.0000	0.0000	1.0000	1.0000	1.0000	1.0000	1.0000	
0.9246	0.0000	0.0000	0.0000	0.0000	0.0000	0.0000	1.0000	1.0000	1.0000	1.0000	1.0000	
0.9296	0.0000	0.0000	0.0000	0.0000	0.0000	0.0000	1.0000	1.0000	1.0000	1.0000	1.0000	
0.9347	0.0000	0.0000	0.0000	0.0000	0.0000	0.0000	1.0000	1.0000	1.0000	1.0000	1.0000	
0.9397	0.0000	0.0000	0.0000	0.0000	0.0000	0.0000	1.0000	1.0000	1.0000	1.0000	1.0000	
0.9447	0.0000	0.0000	0.0000	0.0000	0.0000	0.0000	1.0000	1.0000	1.0000	1.0000	1.0000	
0.9497	0.0000	0.0000	0.0000	0.0000	0.0000	0.0000	1.0000	1.0000	1.0000	1.0000	1.0000	
0.9548	0.0000	0.0000	0.0000	0.0000	0.0000	0.0000	1.0000	1.0000	1.0000	1.0000	1.0000	
0.9598	0.0000	0.0000	0.0000	0.0000	0.0000	0.0000	1.0000	1.0000	1.0000	1.0000	1.0000	
0.9648	0.0000	0.0000	0.0000	0.0000	0.0000	0.0000	1.0000	1.0000	1.0000	1.0000	1.0000	
0.9698	0.0000	0.0000	0.0000	0.0000	0.0000	0.0000	1.0000	1.0000	1.0000	1.0000	1.0000	
0.9749	0.0000	0.0000	0.0000	0.0000	0.0000	0.0000	1.0000	1.0000	1.0000	1.0000	1.0000	
0.9799	0.0000	0.0000	0.0000	0.0000	0.0000	0.0000	1.0000	1.0000	1.0000	1.0000	1.0000	
0.9849	0.0000	0.0000	0.0000	0.0000	0.0000	0.0000	1.0000	1.0000	1.0000	1.0000	1.0000	
0.9899	0.0000	0.0000	0.0000	0.0000	0.0000	0.0000	1.0000	1.0000	1.0000	1.0000	1.0000	
0.9950	0.0000	0.0000	0.0000	0.0000	0.0000	0.0000	1.0000	1.0000	1.0000	1.0000	1.0000	
1.0000	0.0000	0.0000	0.0000	0.0000	0.0000	0.0000	1.0000	1.0000	1.0000	1.0000	1.0000	
